frequency	e'	e''	u'	u''

 100000000.0000	   9.2518	   1.5034	   1.9403	   0.8756

 122375000.0000	   9.0121	   1.5100	   2.0143	   0.7645

 144750000.0000	   8.8723	   1.5070	   1.9673	   0.6853

 167125000.0000	   8.7586	   1.4911	   1.9075	   0.6567

 189500000.0000	   8.6468	   1.4699	   1.8544	   0.6540

 211875000.0000	   8.5433	   1.4560	   1.8119	   0.6661

 234250000.0000	   8.4473	   1.4476	   1.7720	   0.6813

 256625000.0000	   8.3609	   1.4400	   1.7165	   0.7024

 279000000.0000	   8.2849	   1.4288	   1.6388	   0.7152

 301375000.0000	   8.2279	   1.4179	   1.5570	   0.7216

 323750000.0000	   8.1722	   1.4119	   1.4832	   0.7134

 346125000.0000	   8.1228	   1.4108	   1.4167	   0.6882

 368500000.0000	   8.0798	   1.4054	   1.3533	   0.6573

 390875000.0000	   8.0348	   1.4009	   1.2986	   0.6276

 413250000.0000	   7.9921	   1.3916	   1.2419	   0.5922

 435625000.0000	   7.9506	   1.3845	   1.1916	   0.5575

 458000000.0000	   7.9124	   1.3782	   1.1496	   0.5178

 480375000.0000	   7.8789	   1.3756	   1.1186	   0.4821

 502750000.0000	   7.8512	   1.3728	   1.0878	   0.4476

 525125000.0000	   7.8180	   1.3658	   1.0654	   0.4120

 547500000.0000	   7.7884	   1.3579	   1.0437	   0.3777

 569875000.0000	   7.7569	   1.3500	   1.0368	   0.3488

 592250000.0000	   7.7289	   1.3371	   1.0313	   0.3239

 614625000.0000	   7.7031	   1.3243	   1.0272	   0.3008

 637000000.0000	   7.6787	   1.3112	   1.0224	   0.2787

 659375000.0000	   7.6539	   1.3055	   1.0163	   0.2556

 681750000.0000	   7.6292	   1.3018	   1.0105	   0.2273

 704125000.0000	   7.6031	   1.2979	   1.0112	   0.2065

 726500000.0000	   7.5799	   1.2866	   1.0134	   0.1923

 748875000.0000	   7.5578	   1.2728	   1.0178	   0.1793

 771250000.0000	   7.5397	   1.2605	   1.0131	   0.1648

 793625000.0000	   7.5186	   1.2503	   1.0100	   0.1520

 816000000.0000	   7.4979	   1.2384	   1.0095	   0.1390

 838375000.0000	   7.4768	   1.2259	   1.0111	   0.1315

 860750000.0000	   7.4552	   1.2150	   1.0123	   0.1236

 883125000.0000	   7.4357	   1.2044	   1.0147	   0.1159

 905500000.0000	   7.4179	   1.1962	   1.0161	   0.1057

 927875000.0000	   7.4007	   1.1849	   1.0207	   0.0980

 950250000.0000	   7.3823	   1.1740	   1.0252	   0.0901

 972625000.0000	   7.3647	   1.1635	   1.0284	   0.0847

 995000000.0000	   7.3462	   1.1523	   1.0315	   0.0785

1017375000.0000	   7.3284	   1.1435	   1.0377	   0.0749

1039750000.0000	   7.3099	   1.1345	   1.0445	   0.0696

1062125000.0000	   7.2923	   1.1271	   1.0488	   0.0664

1084500000.0000	   7.2760	   1.1197	   1.0513	   0.0627

1106875000.0000	   7.2630	   1.1102	   1.0523	   0.0592

1129250000.0000	   7.2517	   1.1004	   1.0541	   0.0569

1151625000.0000	   7.2390	   1.0906	   1.0568	   0.0550

1174000000.0000	   7.2207	   1.0817	   1.0612	   0.0537

1196375000.0000	   7.2029	   1.0731	   1.0663	   0.0531

1218750000.0000	   7.1879	   1.0661	   1.0734	   0.0495

1241125000.0000	   7.1799	   1.0588	   1.0768	   0.0475

1263500000.0000	   7.1729	   1.0514	   1.0763	   0.0465

1285875000.0000	   7.1651	   1.0451	   1.0745	   0.0452

1308250000.0000	   7.1534	   1.0379	   1.0752	   0.0445

1330625000.0000	   7.1400	   1.0289	   1.0784	   0.0443

1353000000.0000	   7.1255	   1.0208	   1.0830	   0.0435

1375375000.0000	   7.1163	   1.0115	   1.0850	   0.0440

1397750000.0000	   7.1085	   1.0057	   1.0856	   0.0439

1420125000.0000	   7.1041	   1.0021	   1.0845	   0.0428

1442500000.0000	   7.0972	   0.9982	   1.0843	   0.0403

1464875000.0000	   7.0883	   0.9925	   1.0849	   0.0388

1487250000.0000	   7.0800	   0.9851	   1.0865	   0.0383

1509625000.0000	   7.0725	   0.9782	   1.0872	   0.0396

1532000000.0000	   7.0675	   0.9723	   1.0870	   0.0408

1554375000.0000	   7.0607	   0.9690	   1.0868	   0.0413

1576750000.0000	   7.0544	   0.9636	   1.0866	   0.0405

1599125000.0000	   7.0481	   0.9586	   1.0861	   0.0391

1621500000.0000	   7.0425	   0.9548	   1.0848	   0.0379

1643875000.0000	   7.0373	   0.9499	   1.0840	   0.0376

1666250000.0000	   7.0318	   0.9440	   1.0828	   0.0373

1688625000.0000	   7.0225	   0.9380	   1.0837	   0.0376

1711000000.0000	   7.0176	   0.9319	   1.0824	   0.0384

1733375000.0000	   7.0129	   0.9269	   1.0800	   0.0385

1755750000.0000	   7.0081	   0.9230	   1.0780	   0.0378

1778125000.0000	   7.0031	   0.9193	   1.0758	   0.0365

1800500000.0000	   6.9973	   0.9140	   1.0752	   0.0350

1822875000.0000	   6.9921	   0.9082	   1.0743	   0.0355

1845250000.0000	   6.9870	   0.9014	   1.0746	   0.0363

1867625000.0000	   6.9800	   0.8969	   1.0742	   0.0363

1890000000.0000	   6.9731	   0.8928	   1.0731	   0.0352

1912375000.0000	   6.9673	   0.8897	   1.0722	   0.0342

1934750000.0000	   6.9616	   0.8845	   1.0727	   0.0341

1957125000.0000	   6.9576	   0.8791	   1.0714	   0.0346

1979500000.0000	   6.9519	   0.8734	   1.0706	   0.0345

2001875000.0000	   6.9451	   0.8683	   1.0703	   0.0347

2024250000.0000	   6.9393	   0.8631	   1.0696	   0.0345

2046625000.0000	   6.9331	   0.8582	   1.0702	   0.0351

2069000000.0000	   6.9263	   0.8527	   1.0714	   0.0347

2091375000.0000	   6.9206	   0.8483	   1.0716	   0.0347

2113750000.0000	   6.9139	   0.8445	   1.0713	   0.0351

2136125000.0000	   6.9069	   0.8392	   1.0706	   0.0352

2158500000.0000	   6.9001	   0.8332	   1.0703	   0.0350

2180875000.0000	   6.8920	   0.8266	   1.0714	   0.0348

2203250000.0000	   6.8849	   0.8216	   1.0724	   0.0352

2225625000.0000	   6.8777	   0.8182	   1.0734	   0.0356

2248000000.0000	   6.8708	   0.8155	   1.0746	   0.0350

2270375000.0000	   6.8660	   0.8101	   1.0755	   0.0355

2292750000.0000	   6.8615	   0.8036	   1.0763	   0.0359

2315125000.0000	   6.8560	   0.7960	   1.0781	   0.0363

2337500000.0000	   6.8501	   0.7907	   1.0786	   0.0367

2359875000.0000	   6.8432	   0.7864	   1.0802	   0.0381

2382250000.0000	   6.8367	   0.7842	   1.0815	   0.0395

2404625000.0000	   6.8298	   0.7806	   1.0839	   0.0402

2427000000.0000	   6.8246	   0.7766	   1.0867	   0.0401

2449375000.0000	   6.8208	   0.7719	   1.0885	   0.0398

2471750000.0000	   6.8173	   0.7679	   1.0888	   0.0399

2494125000.0000	   6.8133	   0.7642	   1.0885	   0.0411

2516500000.0000	   6.8086	   0.7591	   1.0896	   0.0427

2538875000.0000	   6.8017	   0.7530	   1.0923	   0.0434

2561250000.0000	   6.7960	   0.7484	   1.0951	   0.0439

2583625000.0000	   6.7925	   0.7467	   1.0966	   0.0435

2606000000.0000	   6.7906	   0.7462	   1.0974	   0.0432

2628375000.0000	   6.7882	   0.7447	   1.0978	   0.0420

2650750000.0000	   6.7852	   0.7414	   1.0978	   0.0413

2673125000.0000	   6.7818	   0.7363	   1.0971	   0.0418

2695500000.0000	   6.7771	   0.7315	   1.0969	   0.0422

2717875000.0000	   6.7725	   0.7280	   1.0982	   0.0431

2740250000.0000	   6.7696	   0.7265	   1.0999	   0.0438

2762625000.0000	   6.7679	   0.7251	   1.1014	   0.0441

2785000000.0000	   6.7665	   0.7228	   1.1028	   0.0435

2807375000.0000	   6.7662	   0.7191	   1.1028	   0.0428

2829750000.0000	   6.7651	   0.7150	   1.1025	   0.0416

2852125000.0000	   6.7621	   0.7109	   1.1023	   0.0409

2874500000.0000	   6.7596	   0.7084	   1.1024	   0.0413

2896875000.0000	   6.7576	   0.7064	   1.1028	   0.0421

2919250000.0000	   6.7556	   0.7031	   1.1036	   0.0424

2941625000.0000	   6.7537	   0.7002	   1.1044	   0.0421

2964000000.0000	   6.7533	   0.6974	   1.1038	   0.0406

2986375000.0000	   6.7522	   0.6949	   1.1031	   0.0394

3008750000.0000	   6.7484	   0.6929	   1.1015	   0.0385

3031125000.0000	   6.7458	   0.6885	   1.1010	   0.0389

3053500000.0000	   6.7435	   0.6844	   1.1005	   0.0396

3075875000.0000	   6.7418	   0.6820	   1.0995	   0.0406

3098250000.0000	   6.7409	   0.6798	   1.0988	   0.0406

3120625000.0000	   6.7401	   0.6778	   1.0993	   0.0394

3143000000.0000	   6.7378	   0.6750	   1.1002	   0.0378

3165375000.0000	   6.7362	   0.6724	   1.0991	   0.0371

3187750000.0000	   6.7343	   0.6700	   1.0976	   0.0372

3210125000.0000	   6.7327	   0.6670	   1.0964	   0.0370

3232500000.0000	   6.7308	   0.6625	   1.0964	   0.0366

3254875000.0000	   6.7303	   0.6595	   1.0966	   0.0369

3277250000.0000	   6.7291	   0.6564	   1.0965	   0.0372

3299625000.0000	   6.7272	   0.6534	   1.0962	   0.0371

3322000000.0000	   6.7247	   0.6496	   1.0961	   0.0371

3344375000.0000	   6.7209	   0.6468	   1.0953	   0.0366

3366750000.0000	   6.7177	   0.6437	   1.0950	   0.0360

3389125000.0000	   6.7146	   0.6416	   1.0944	   0.0355

3411500000.0000	   6.7113	   0.6394	   1.0942	   0.0355

3433875000.0000	   6.7082	   0.6358	   1.0949	   0.0351

3456250000.0000	   6.7053	   0.6332	   1.0954	   0.0345

3478625000.0000	   6.7018	   0.6297	   1.0958	   0.0336

3501000000.0000	   6.6991	   0.6262	   1.0962	   0.0330

3523375000.0000	   6.6977	   0.6239	   1.0956	   0.0335

3545750000.0000	   6.6966	   0.6208	   1.0961	   0.0341

3568125000.0000	   6.6944	   0.6182	   1.0972	   0.0336

3590500000.0000	   6.6914	   0.6160	   1.0986	   0.0324

3612875000.0000	   6.6876	   0.6141	   1.0986	   0.0317

3635250000.0000	   6.6837	   0.6115	   1.0978	   0.0311

3657625000.0000	   6.6812	   0.6090	   1.0973	   0.0312

3680000000.0000	   6.6799	   0.6063	   1.0979	   0.0317

3702375000.0000	   6.6781	   0.6043	   1.0982	   0.0314

3724750000.0000	   6.6753	   0.6027	   1.0984	   0.0306

3747125000.0000	   6.6719	   0.6009	   1.0989	   0.0300

3769500000.0000	   6.6694	   0.5981	   1.0997	   0.0296

3791875000.0000	   6.6684	   0.5954	   1.1007	   0.0294

3814250000.0000	   6.6675	   0.5942	   1.1011	   0.0292

3836625000.0000	   6.6665	   0.5928	   1.1010	   0.0285

3859000000.0000	   6.6647	   0.5913	   1.1006	   0.0276

3881375000.0000	   6.6632	   0.5889	   1.0999	   0.0276

3903750000.0000	   6.6618	   0.5858	   1.1004	   0.0280

3926125000.0000	   6.6602	   0.5837	   1.1018	   0.0283

3948500000.0000	   6.6596	   0.5830	   1.1028	   0.0284

3970875000.0000	   6.6596	   0.5825	   1.1028	   0.0279

3993250000.0000	   6.6594	   0.5816	   1.1022	   0.0274

4015625000.0000	   6.6595	   0.5807	   1.1014	   0.0270

4038000000.0000	   6.6596	   0.5784	   1.1010	   0.0264

4060375000.0000	   6.6591	   0.5765	   1.1009	   0.0266

4082750000.0000	   6.6584	   0.5753	   1.1010	   0.0267

4105125000.0000	   6.6570	   0.5750	   1.1006	   0.0265

4127500000.0000	   6.6544	   0.5751	   1.1003	   0.0262

4149875000.0000	   6.6538	   0.5751	   1.0998	   0.0253

4172250000.0000	   6.6552	   0.5752	   1.0994	   0.0245

4194625000.0000	   6.6567	   0.5745	   1.0990	   0.0239

4217000000.0000	   6.6568	   0.5731	   1.0979	   0.0234

4239375000.0000	   6.6545	   0.5714	   1.0967	   0.0232

4261750000.0000	   6.6516	   0.5695	   1.0963	   0.0233

4284125000.0000	   6.6502	   0.5684	   1.0958	   0.0231

4306500000.0000	   6.6496	   0.5676	   1.0959	   0.0227

4328875000.0000	   6.6497	   0.5675	   1.0958	   0.0221

4351250000.0000	   6.6497	   0.5673	   1.0953	   0.0215

4373625000.0000	   6.6495	   0.5659	   1.0944	   0.0212

4396000000.0000	   6.6489	   0.5647	   1.0933	   0.0209

4418375000.0000	   6.6459	   0.5638	   1.0927	   0.0208

4440750000.0000	   6.6429	   0.5633	   1.0919	   0.0204

4463125000.0000	   6.6409	   0.5630	   1.0916	   0.0203

4485500000.0000	   6.6387	   0.5610	   1.0914	   0.0201

4507875000.0000	   6.6365	   0.5590	   1.0917	   0.0197

4530250000.0000	   6.6346	   0.5586	   1.0923	   0.0193

4552625000.0000	   6.6328	   0.5576	   1.0920	   0.0189

4575000000.0000	   6.6306	   0.5566	   1.0915	   0.0188

4597375000.0000	   6.6274	   0.5566	   1.0908	   0.0187

4619750000.0000	   6.6241	   0.5552	   1.0907	   0.0185

4642125000.0000	   6.6216	   0.5537	   1.0911	   0.0184

4664500000.0000	   6.6192	   0.5523	   1.0911	   0.0185

4686875000.0000	   6.6172	   0.5511	   1.0911	   0.0189

4709250000.0000	   6.6148	   0.5485	   1.0917	   0.0189

4731625000.0000	   6.6109	   0.5470	   1.0926	   0.0192

4754000000.0000	   6.6072	   0.5458	   1.0933	   0.0190

4776375000.0000	   6.6038	   0.5458	   1.0940	   0.0191

4798750000.0000	   6.6010	   0.5462	   1.0942	   0.0186

4821125000.0000	   6.5982	   0.5453	   1.0947	   0.0185

4843500000.0000	   6.5955	   0.5432	   1.0955	   0.0187

4865875000.0000	   6.5932	   0.5407	   1.0965	   0.0190

4888250000.0000	   6.5911	   0.5389	   1.0973	   0.0193

4910625000.0000	   6.5889	   0.5385	   1.0979	   0.0196

4933000000.0000	   6.5877	   0.5392	   1.0981	   0.0200

4955375000.0000	   6.5855	   0.5403	   1.0984	   0.0194

4977750000.0000	   6.5837	   0.5385	   1.0991	   0.0193

5000125000.0000	   6.5816	   0.5368	   1.1000	   0.0193

5022500000.0000	   6.5797	   0.5350	   1.1010	   0.0197

5044875000.0000	   6.5783	   0.5347	   1.1014	   0.0204

5067250000.0000	   6.5775	   0.5344	   1.1017	   0.0209

5089625000.0000	   6.5756	   0.5347	   1.1023	   0.0209

5112000000.0000	   6.5735	   0.5339	   1.1034	   0.0207

5134375000.0000	   6.5719	   0.5335	   1.1043	   0.0204

5156750000.0000	   6.5714	   0.5331	   1.1051	   0.0203

5179125000.0000	   6.5717	   0.5320	   1.1057	   0.0206

5201500000.0000	   6.5720	   0.5308	   1.1060	   0.0208

5223875000.0000	   6.5721	   0.5295	   1.1061	   0.0212

5246250000.0000	   6.5718	   0.5294	   1.1063	   0.0215

5268625000.0000	   6.5724	   0.5295	   1.1066	   0.0219

5291000000.0000	   6.5723	   0.5302	   1.1070	   0.0219

5313375000.0000	   6.5724	   0.5302	   1.1073	   0.0216

5335750000.0000	   6.5720	   0.5290	   1.1078	   0.0212

5358125000.0000	   6.5718	   0.5268	   1.1080	   0.0211

5380500000.0000	   6.5722	   0.5256	   1.1076	   0.0214

5402875000.0000	   6.5725	   0.5250	   1.1075	   0.0217

5425250000.0000	   6.5732	   0.5242	   1.1077	   0.0221

5447625000.0000	   6.5729	   0.5239	   1.1080	   0.0224

5470000000.0000	   6.5733	   0.5230	   1.1083	   0.0225

5492375000.0000	   6.5733	   0.5222	   1.1086	   0.0223

5514750000.0000	   6.5740	   0.5211	   1.1085	   0.0222

5537125000.0000	   6.5754	   0.5196	   1.1084	   0.0220

5559500000.0000	   6.5762	   0.5180	   1.1081	   0.0222

5581875000.0000	   6.5775	   0.5166	   1.1076	   0.0227

5604250000.0000	   6.5781	   0.5145	   1.1075	   0.0231

5626625000.0000	   6.5783	   0.5142	   1.1072	   0.0233

5649000000.0000	   6.5778	   0.5133	   1.1071	   0.0231

5671375000.0000	   6.5781	   0.5124	   1.1070	   0.0231

5693750000.0000	   6.5781	   0.5112	   1.1067	   0.0230

5716125000.0000	   6.5789	   0.5094	   1.1063	   0.0232

5738500000.0000	   6.5798	   0.5071	   1.1059	   0.0235

5760875000.0000	   6.5800	   0.5053	   1.1055	   0.0240

5783250000.0000	   6.5798	   0.5044	   1.1051	   0.0242

5805625000.0000	   6.5797	   0.5031	   1.1049	   0.0243

5828000000.0000	   6.5788	   0.5016	   1.1046	   0.0242

5850375000.0000	   6.5787	   0.4996	   1.1044	   0.0244

5872750000.0000	   6.5788	   0.4992	   1.1037	   0.0244

5895125000.0000	   6.5788	   0.4979	   1.1028	   0.0244

5917500000.0000	   6.5789	   0.4962	   1.1023	   0.0247

5939875000.0000	   6.5779	   0.4940	   1.1022	   0.0248

5962250000.0000	   6.5762	   0.4918	   1.1021	   0.0249

5984625000.0000	   6.5757	   0.4895	   1.1019	   0.0250

6007000000.0000	   6.5746	   0.4888	   1.1013	   0.0251

6029375000.0000	   6.5733	   0.4874	   1.1010	   0.0251

6051750000.0000	   6.5718	   0.4857	   1.1007	   0.0249

6074125000.0000	   6.5696	   0.4832	   1.1008	   0.0249

6096500000.0000	   6.5680	   0.4812	   1.1010	   0.0251

6118875000.0000	   6.5670	   0.4797	   1.1012	   0.0252

6141250000.0000	   6.5674	   0.4792	   1.1011	   0.0252

6163625000.0000	   6.5679	   0.4781	   1.1008	   0.0248

6186000000.0000	   6.5671	   0.4768	   1.1006	   0.0245

6208375000.0000	   6.5655	   0.4742	   1.1005	   0.0242

6230750000.0000	   6.5640	   0.4717	   1.1008	   0.0245

6253125000.0000	   6.5630	   0.4696	   1.1008	   0.0250

6275500000.0000	   6.5634	   0.4685	   1.1009	   0.0254

6297875000.0000	   6.5638	   0.4679	   1.1010	   0.0254

6320250000.0000	   6.5639	   0.4679	   1.1010	   0.0249

6342625000.0000	   6.5629	   0.4665	   1.1012	   0.0243

6365000000.0000	   6.5627	   0.4653	   1.1012	   0.0240

6387375000.0000	   6.5632	   0.4637	   1.1011	   0.0242

6409750000.0000	   6.5644	   0.4617	   1.1010	   0.0245

6432125000.0000	   6.5643	   0.4601	   1.1009	   0.0246

6454500000.0000	   6.5644	   0.4591	   1.1010	   0.0246

6476875000.0000	   6.5646	   0.4590	   1.1011	   0.0242

6499250000.0000	   6.5656	   0.4591	   1.1011	   0.0238

6521625000.0000	   6.5666	   0.4581	   1.1008	   0.0235

6544000000.0000	   6.5673	   0.4566	   1.1005	   0.0234

6566375000.0000	   6.5677	   0.4547	   1.1003	   0.0236

6588750000.0000	   6.5677	   0.4534	   1.1001	   0.0237

6611125000.0000	   6.5672	   0.4522	   1.1002	   0.0237

6633500000.0000	   6.5672	   0.4526	   1.1001	   0.0236

6655875000.0000	   6.5677	   0.4533	   1.1001	   0.0234

6678250000.0000	   6.5692	   0.4533	   1.0999	   0.0230

6700625000.0000	   6.5700	   0.4525	   1.0998	   0.0227

6723000000.0000	   6.5701	   0.4513	   1.0995	   0.0225

6745375000.0000	   6.5699	   0.4500	   1.0993	   0.0221

6767750000.0000	   6.5697	   0.4491	   1.0990	   0.0221

6790125000.0000	   6.5695	   0.4487	   1.0985	   0.0220

6812500000.0000	   6.5705	   0.4488	   1.0981	   0.0219

6834875000.0000	   6.5713	   0.4493	   1.0979	   0.0218

6857250000.0000	   6.5712	   0.4486	   1.0978	   0.0216

6879625000.0000	   6.5705	   0.4486	   1.0978	   0.0211

6902000000.0000	   6.5697	   0.4478	   1.0975	   0.0209

6924375000.0000	   6.5677	   0.4469	   1.0973	   0.0207

6946750000.0000	   6.5667	   0.4461	   1.0969	   0.0205

6969125000.0000	   6.5658	   0.4462	   1.0967	   0.0204

6991500000.0000	   6.5659	   0.4464	   1.0964	   0.0202

7013875000.0000	   6.5657	   0.4469	   1.0962	   0.0200

7036250000.0000	   6.5652	   0.4461	   1.0963	   0.0199

7058625000.0000	   6.5634	   0.4443	   1.0966	   0.0196

7081000000.0000	   6.5604	   0.4432	   1.0965	   0.0191

7103375000.0000	   6.5577	   0.4425	   1.0962	   0.0188

7125750000.0000	   6.5559	   0.4425	   1.0960	   0.0186

7148125000.0000	   6.5539	   0.4428	   1.0961	   0.0187

7170500000.0000	   6.5523	   0.4428	   1.0963	   0.0188

7192875000.0000	   6.5506	   0.4420	   1.0967	   0.0188

7215250000.0000	   6.5492	   0.4411	   1.0971	   0.0188

7237625000.0000	   6.5462	   0.4397	   1.0975	   0.0183

7260000000.0000	   6.5436	   0.4382	   1.0979	   0.0179

7282375000.0000	   6.5419	   0.4387	   1.0981	   0.0177

7304750000.0000	   6.5396	   0.4394	   1.0983	   0.0174

7327125000.0000	   6.5381	   0.4404	   1.0988	   0.0176

7349500000.0000	   6.5381	   0.4410	   1.0990	   0.0176

7371875000.0000	   6.5388	   0.4399	   1.0993	   0.0176

7394250000.0000	   6.5389	   0.4376	   1.0997	   0.0175

7416625000.0000	   6.5375	   0.4366	   1.1002	   0.0176

7439000000.0000	   6.5349	   0.4372	   1.1006	   0.0174

7461375000.0000	   6.5326	   0.4390	   1.1010	   0.0171

7483750000.0000	   6.5321	   0.4407	   1.1015	   0.0169

7506125000.0000	   6.5335	   0.4410	   1.1018	   0.0168

7528500000.0000	   6.5368	   0.4411	   1.1019	   0.0168

7550875000.0000	   6.5393	   0.4411	   1.1019	   0.0169

7573250000.0000	   6.5395	   0.4399	   1.1018	   0.0168

7595625000.0000	   6.5377	   0.4392	   1.1019	   0.0166

7618000000.0000	   6.5354	   0.4395	   1.1022	   0.0165

7640375000.0000	   6.5348	   0.4405	   1.1026	   0.0166

